# Wilkinson Microwave Anisotropy Probe (WMAP) 3-year data release.
# WMAP 3-Year Combined TT Power Spectrum, version 2.0 (March 2006)
# Reference = WMAP Explanatory Supplement: http://lambda.gsfc.nasa.gov/
# Column 1 = multipole moment l
# Column 2 = TT power spectrum, units = uK^2, =  l(l+1)/2pi * C_l.
# Column 3 = 'Error' derived from diagonal terms of Fisher matrix, units = uK^2.
#             Included only as an estimate of their magnitude.  The
#             multipole moments are slightly coupled, so a correct
#             treatment of errors requires use of the entire Fisher matrix.
# Column 4 = portion of column3 error attributed to measurement errors,
#             in "2SN + NN" form, units = uK^2.
# Column 5 = portion of column3 error attributed to cosmic variance, 
#             assuming the best-fit LCDM model described in
#             "Three-Year WMAP Observations: Implications for Cosmology", 
#             Spergel et al. (2006). Units = uK^2
# 
# The 3-yr TT power spectrum is produced by combining the  
# Maximum Likelihood estimated spectrum from l = 2-10 with the 
# pseudo-C_l based cross-power spectra for l > 10.  The errors 
# quoted in column 3 are all from the pseudo-C_l method.  The 
# actual ML errors are asymmetric.  The following table gives the 68% and 95% 
# ML confidence level (CL) intervals (including cosmic variance) in uK^2: 
# 
# 
#   l   dT2  -95%  -68%  +68%  +95% 
#  -------------------------------- 
#   2   211    51    87   721  2884 
#   3  1041   348   544  2401  5732 
#   4   731   271   421  1431  3134 
#   5  1521   646   951  2731  5165 
#   6   661   291   426  1111  1990 
#   7  1331   629   893  2131  3581 
#   8   671   332   461  1041  1671 
#   9   631   308   432   971  1521 
#  10   751   393   536  1111  1681 
#
# (taken from table 7 of "Three-Year WMAP Observations: Temperature Analysis
# Hinshaw et al (2006)) 
# 
# Note: the v2 likelihood code delivered with the three-year data release 
# uses the ML solution up to l=12. 
# 
# Revision History:
#  v2  : initial release
# 
    2     211.0000     866.3292       7.0977     866.3292
    3    1041.0000     682.1742       7.5349     682.1742
    4     731.0000     558.4538       7.8580     558.4538
    5    1521.0000     474.4803       8.1495     474.4803
    6     661.0000     415.2689       8.4336     415.2689
    7    1331.0000     372.4932       8.7251     372.4932
    8     671.0000     340.7971       9.0278     340.7971
    9     631.0000     316.5380       9.3391     316.5380
   10     751.0000     297.8543       9.6626     297.8543
   11    1163.6960     289.1480      10.0978     288.9716
   12     729.3301     276.7127      10.4337     276.5159
   13     710.3536     266.6047      10.7759     266.3869
   14     911.0194     258.3928      11.1256     258.1532
   15     838.3107     251.5797      11.4795     251.3176
   16     676.3671     245.7855      11.8347     245.5004
   17    1043.5229     240.9765      12.1947     240.6678
   18     735.4813     237.1273      12.5633     236.7943
   19    1005.6870     233.9479      12.9361     233.5900
   20     852.3668     231.1732      13.3085     230.7898
   21     668.0229     228.8016      13.6821     228.3921
   22     462.0531     226.8519      14.0591     226.4159
   23     651.8333     225.2395      14.4388     224.7763
   24     928.8911     223.8650      14.8191     223.3740
   25     817.2878     222.7132      15.2004     222.1939
   26     921.2870     221.7899      15.5839     221.2418
   27    1104.0220     221.0811      15.9701     220.5036
   28    1420.9740     220.5682      16.3591     219.9607
   29     959.2290     220.1977      16.7495     219.5598
   30     955.1577     219.9759      17.1423     219.3070
   31    1108.2390     219.8420      17.5355     219.1416
   32    1618.1910     219.8510      17.9318     219.1185
   33    1155.2980     219.9533      18.3296     219.1882
   34    1073.2260     220.1827      18.7309     219.3845
   35     874.9117     220.4922      19.1336     219.6604
   36    1095.5170     220.8572      19.5376     219.9913
   37    1458.9600     221.2931      19.9433     220.3926
   38    1333.8250     221.8149      20.3519     220.8793
   39    1391.7770     222.4180      20.7634     221.4467
   40    1973.2860     223.0797      21.1772     222.0722
   41    1289.6180     223.8152      21.5938     222.7711
   42    1199.7180     224.6029      22.0128     223.5216
   43    1459.8500     225.4223      22.4331     224.3033
   44    1340.0890     226.2893      22.8558     225.1321
   45    1045.2910     227.1842      23.2803     225.9883
   46    1055.8850     228.1228      23.7072     226.8876
   47    1577.3409     229.1031      24.1361     227.8282
   48     965.6293     230.1234      24.5680     228.8082
   49    1537.5790     231.1820      25.0021     229.8260
   50    1569.8760     232.2940      25.4399     230.8967
   51    1144.3311     233.4575      25.8814     232.0184
   52    1633.3130     234.6543      26.3256     233.1729
   53    1117.9430     235.8833      26.7723     234.3591
   54    1176.9830     237.1432      27.2218     235.5757
   55    1556.5551     238.4174      27.6733     236.8059
   56    1557.6260     239.7364      28.1284     238.0805
   57    1596.9060     241.0522      28.5847     239.3514
   58    1735.0320     242.4112      29.0446     240.6649
   59    1156.7230     243.7814      29.5069     241.9891
   60    1984.2629     245.1927      29.9727     243.3539
   61    1590.2510     246.6290      30.4417     244.7431
   62    1935.6970     248.0896      30.9136     246.1560
   63    1718.6650     249.5738      31.3886     247.5921
   64    1462.0010     251.0956      31.8675     249.0651
   65    1560.1940     252.6396      32.3495     250.5599
   66    1563.3210     254.2196      32.8356     252.0901
   67    1570.8770     255.8204      33.3247     253.6406
   68    1848.7100     257.4416      33.8169     255.2109
   69    2297.4199     259.0827      34.3128     256.8005
   70    1822.3160     260.7573      34.8124     258.4230
   71    1721.0300     262.4507      35.3153     260.0638
   72    1474.0389     264.1624      35.8212     261.7224
   73    2642.2329     265.9059      36.3317     263.4122
   74    2089.1851     267.6670      36.8454     265.1189
   75    2023.9160     269.4588      37.3633     266.8558
   76    1744.7150     271.2672      37.8848     268.6087
   77    2025.3070     273.1053      38.4105     270.3907
   78    1882.5980     274.9593      38.9395     272.1880
   79    1666.2200     276.8289      39.4719     274.0003
   80    2328.7041     278.7138      40.0078     275.8274
   81    2279.2019     280.6008      40.5462     277.6559
   82    2783.3879     282.5157      41.0889     279.5117
   83    1924.5341     284.4322      41.6341     281.3686
   84    1718.3290     286.3762      42.1840     283.2523
   85    2490.2510     288.3344      42.7374     285.1495
   86    2493.0281     290.3192      43.2952     287.0728
   87    2437.3999     292.3303      43.8575     289.0217
   88    1860.8770     294.3547      44.4234     290.9832
   89    2424.6550     296.4047      44.9938     292.9698
   90    2237.0420     298.4799      45.5690     294.9809
   91    2578.1460     300.5800      46.1489     297.0162
   92    2437.8540     302.6924      46.7321     299.0632
   93    2867.4319     304.8169      47.3191     301.1216
   94    2122.9829     306.9533      47.9100     303.1913
   95    2132.6899     309.1017      48.5044     305.2722
   96    2376.8301     311.2377      49.1010     307.3402
   97    2578.6299     313.3856      49.7011     309.4193
   98    1830.4780     315.5332      50.3038     311.4975
   99    2755.3340     317.6926      50.9108     313.5869
  100    3032.9299     319.8636      51.5213     315.6870
  101    2715.1531     322.0462      52.1357     317.7981
  102    2904.2959     324.2401      52.7540     319.9198
  103    2584.3279     326.4338      53.3753     322.0405
  104    3061.8831     328.6503      54.0013     324.1833
  105    2116.1121     330.8778      54.6314     326.3366
  106    2750.1909     333.1050      55.2645     328.4886
  107    3124.8530     335.3432      55.9017     330.6509
  108    3693.3550     337.5809      56.5414     332.8122
  109    2912.2251     339.8408      57.1861     334.9948
  110    3307.6521     342.0890      57.8333     337.1649
  111    2778.4370     344.3481      58.4842     339.3452
  112    3010.2549     346.6180      59.1396     341.5356
  113    2481.4961     348.8875      59.7976     343.7248
  114    2111.7061     351.1566      60.4590     345.9128
  115    3311.7810     353.4256      61.1239     348.0999
  116    3560.3259     355.6942      61.7913     350.2859
  117    4494.0151     357.9737      62.4630     352.4820
  118    3703.7910     360.2421      63.1363     354.6663
  119    3465.8899     362.5215      63.8155     356.8605
  120    2860.3611     364.7898      64.4955     359.0431
  121    4312.8862     367.0584      65.1797     361.2250
  122    3222.8701     369.3270      65.8664     363.4062
  123    3476.5820     371.5852      66.5555     365.5762
  124    2995.6040     373.8441      67.2496     367.7457
  125    3195.4880     376.0924      67.9439     369.9041
  126    3562.6851     378.3415      68.6429     372.0624
  127    3657.9980     380.5701      69.3435     374.1993
  128    3419.0979     382.7993      70.0453     376.3362
  129    3313.1750     385.0193      70.7516     378.4627
  130    3807.7991     387.2192      71.4583     380.5685
  131    3241.3501     389.4206      72.1699     382.6747
  132    3165.4619     391.5920      72.8801     384.7503
  133    3668.5000     393.7653      73.5959     386.8264
  134    3743.5200     395.9192      74.3111     388.8828
  135    4098.4790     398.0545      75.0285     390.9196
  136    4631.7241     400.1716      75.7479     392.9370
  137    3787.3899     402.2805      76.4700     394.9455
  138    3704.3340     404.3613      77.1921     396.9250
  139    4350.5952     406.4345      77.9176     398.8958
  140    4038.3889     408.4802      78.6435     400.8383
  141    4328.7158     410.5086      79.3707     402.7625
  142    4359.7041     412.5102      80.0992     404.6588
  143    4272.7070     414.4949      80.8285     406.5375
  144    3806.2371     416.4630      81.5597     408.3987
  145    5076.8740     418.3952      82.2906     410.2229
  146    4115.0420     420.3214      83.0249     412.0400
  147    4065.7229     422.2120      83.7581     413.8206
  148    3751.7610     424.0774      84.4922     415.5751
  149    3582.8540     425.9277      85.2289     417.3134
  150    4429.7769     427.7436      85.9651     419.0161
  151    4443.5791     429.5348      86.7013     420.6935
  152    4348.8452     431.3117      87.4401     422.3553
  153    4999.2432     433.0452      88.1759     423.9731
  154    3974.1941     434.7649      88.9151     425.5757
  155    4682.0928     436.4518      89.6541     427.1444
  156    4251.4541     438.1060      90.3920     428.6796
  157    4526.0659     439.7375      91.1313     430.1909
  158    4977.5952     441.3465      91.8704     431.6787
  159    4935.0879     442.9145      92.6096     433.1244
  160    4934.5942     444.4603      93.3483     434.5469
  161    4460.4980     445.9754      94.0881     435.9375
  162    4282.2231     447.4597      94.8275     437.2962
  163    4535.4111     448.9135      95.5661     438.6233
  164    4705.4019     450.3278      96.3036     439.9099
  165    4668.3232     451.7216      97.0419     441.1749
  166    4632.4502     453.0767      97.7794     442.3999
  167    4869.3462     454.4024      98.5154     443.5947
  168    4950.8008     455.6996      99.2533     444.7593
  169    4958.0830     456.9584      99.9882     445.8849
  170    4330.8599     458.1800     100.7219     446.9720
  171    4519.7280     459.3735     101.4557     448.0298
  172    5133.1470     460.5302     102.1885     449.0496
  173    5073.0649     461.6594     102.9209     450.0407
  174    4603.1401     462.7523     103.6518     450.9945
  175    5098.5532     463.8006     104.3814     451.9021
  176    5151.4312     464.8220     105.1094     452.7819
  177    4918.8311     465.8080     105.8362     453.6252
  178    4913.4692     466.7504     106.5616     454.4234
  179    6031.7622     467.6667     107.2856     455.1944
  180    5209.8921     468.5400     108.0077     455.9211
  181    4064.4460     469.3789     108.7273     456.6125
  182    4494.8711     470.1757     109.4461     457.2600
  183    4820.3569     470.9388     110.1629     457.8728
  184    5384.5000     471.6598     110.8765     458.4423
  185    5483.6162     472.3481     111.5894     458.9778
  186    4763.7798     472.9950     112.2991     459.4706
  187    5064.0801     473.6010     113.0063     459.9211
  188    5876.7900     474.1750     113.7124     460.3383
  189    6184.5210     474.7001     114.4153     460.7052
  190    5481.0430     475.1935     115.1152     461.0394
  191    5558.4941     475.6385     115.8116     461.3239
  192    5903.6719     476.0528     116.5065     461.5761
  193    5651.4009     476.4194     117.1973     461.7794
  194    5293.4360     476.7474     117.8866     461.9424
  195    4600.0459     477.0281     118.5706     462.0571
  196    5519.8120     477.2790     119.2529     462.1407
  197    5903.1641     477.4752     119.9303     462.1680
  198    5808.9888     477.6338     120.6052     462.1563
  199    5473.7148     477.7552     121.2771     462.1060
  200    5774.2861     477.8309     121.9440     462.0086
  201    5207.9658     477.8615     122.6068     461.8649
  202    5561.5532     477.8475     123.2664     461.6749
  203    5888.1709     477.7891     123.9214     461.4389
  204    5972.7388     477.6864     124.5718     461.1574
  205    5484.9268     477.5482     125.2193     460.8388
  206    5361.2642     477.3578     125.8599     460.4669
  207    4999.2788     477.1248     126.4982     460.0503
  208    5038.4668     476.8400     127.1291     459.5809
  209    4642.7500     476.5211     127.7568     459.0757
  210    6008.3428     476.1515     128.3788     458.5184
  211    5324.9482     475.7318     128.9951     457.9093
  212    5734.4609     475.2701     129.6062     457.2570
  213    5760.4419     474.7591     130.2117     456.5535
  214    5601.5142     474.2149     130.8132     455.8154
  215    6762.9121     473.6139     131.4082     455.0187
  216    5597.3340     472.9800     131.9980     454.1879
  217    5285.1382     472.2976     132.5812     453.3070
  218    6046.9048     471.5756     133.1604     452.3846
  219    5196.7832     470.8135     133.7337     451.4207
  220    6255.6538     470.0041     134.3012     450.4076
  221    6207.3638     469.1630     134.8629     449.3617
  222    5992.6558     468.2753     135.4196     448.2670
  223    5943.0801     467.3483     135.9689     447.1319
  224    5389.6509     466.3833     136.5140     445.9566
  225    5838.9238     465.3797     137.0527     444.7413
  226    5698.0908     464.3382     137.5862     443.4862
  227    5867.6411     463.2665     138.1142     442.1995
  228    5052.0879     462.1494     138.6349     440.8656
  229    4924.2832     460.9951     139.1503     439.4925
  230    5363.1992     459.8112     139.6599     438.0883
  231    5545.5049     458.5905     140.1642     436.6455
  232    5999.6782     457.3329     140.6612     435.1641
  233    5964.0562     456.0389     141.1524     433.6443
  234    4378.2720     454.7159     141.6372     432.0943
  235    5630.4790     453.3571     142.1165     430.5062
  236    6276.4531     451.9623     142.5885     428.8804
  237    5092.2959     450.5395     143.0552     427.2248
  238    6065.1650     449.0812     143.5154     425.5318
  239    5451.3682     447.5872     143.9676     423.8015
  240    5845.9839     446.0659     144.4144     422.0418
  241    5417.2192     444.5175     144.8560     420.2530
  242    5185.1421     442.9339     145.2892     418.4274
  243    5485.3872     441.3235     145.7170     416.5729
  244    5067.0791     439.6782     146.1363     414.6819
  245    6250.3940     438.0067     146.5505     412.7624
  246    5521.7158     436.3084     146.9577     410.8143
  247    5815.6191     434.5840     147.3594     408.8380
  248    5493.3481     432.8255     147.7522     406.8257
  249    4564.0479     431.0406     148.1374     404.7855
  250    5259.2861     429.2299     148.5166     402.7172
  251    5238.2041     427.3936     148.8895     400.6211
  252    5956.3442     425.5239     149.2533     398.4897
  253    5017.4380     423.6361     149.6113     396.3383
  254    5255.2690     421.7231     149.9626     394.1594
  255    5123.1099     419.7775     150.3056     391.9456
  256    5515.8379     417.8137     150.6412     389.7121
  257    5255.0898     415.8249     150.9694     387.4514
  258    5393.3169     413.8116     151.2911     385.1637
  259    4706.0928     411.7729     151.6035     382.8490
  260    5648.0879     409.7101     151.9090     380.5075
  261    5183.3101     407.6227     152.2067     378.1394
  262    5728.8950     405.5178     152.4964     375.7520
  263    5778.5088     403.3889     152.7787     373.3380
  264    4789.2808     401.2431     153.0537     370.9050
  265    4402.8501     399.0731     153.3201     368.4457
  266    5468.0488     396.8867     153.5801     365.9674
  267    4801.2412     394.6830     153.8309     363.4704
  268    5465.7041     392.4633     154.0755     360.9545
  269    4808.2241     390.2267     154.3117     358.4198
  270    4469.1499     387.9743     154.5417     355.8665
  271    5161.0332     385.7058     154.7639     353.2946
  272    5646.7808     383.4278     154.9789     350.7113
  273    4854.3008     381.1337     155.1858     348.1095
  274    5265.8281     378.8309     155.3865     345.4965
  275    4123.8398     376.5116     155.5781     342.8651
  276    4016.6470     374.1839     155.7637     340.2224
  277    5233.9922     371.8546     155.9436     337.5758
  278    4628.9731     369.5092     156.1146     334.9109
  279    5204.2622     367.1558     156.2801     332.2347
  280    4235.3442     364.7931     156.4366     329.5476
  281    4425.3169     362.4294     156.5884     326.8565
  282    5308.9170     360.0565     156.7315     324.1542
  283    5480.2241     357.6820     156.8681     321.4480
  284    4594.7910     355.3004     157.0005     318.7307
  285    3807.2849     352.9162     157.1237     316.0095
  286    4832.9912     350.5308     157.2413     313.2842
  287    4060.0549     348.1437     157.3521     310.5550
  288    4187.3809     345.7489     157.4560     307.8147
  289    4804.7539     343.3593     157.5544     305.0774
  290    4389.3008     340.9688     157.6472     302.3360
  291    3625.2549     338.5828     157.7327     299.5976
  292    4451.5908     336.1964     157.8134     296.8551
  293    4442.8330     333.8154     157.8886     294.1155
  294    4339.0820     331.4327     157.9564     291.3716
  295    4192.3628     329.0554     158.0184     288.6306
  296    4316.6548     326.6833     158.0745     285.8924
  297    4390.7080     324.3188     158.1294     283.1568
  298    3808.2310     321.9582     158.1756     280.4239
  299    4007.6870     319.6021     158.2143     277.6936
  300    4563.7822     317.2540     158.2525     274.9659
  301    3312.6230     314.9160     158.2823     272.2477
  302    4155.6279     312.5915     158.3109     269.5387
  303    3361.8010     310.2725     158.3338     266.8322
  304    4213.2109     307.9557     158.3451     264.1279
  305    4101.4229     305.6610     158.3600     261.4398
  306    3435.9270     303.3728     158.3714     258.7539
  307    3582.3640     301.1010     158.3757     256.0838
  308    3678.5720     298.8347     158.3748     253.4159
  309    3686.0820     296.5873     158.3718     250.7636
  310    3648.3550     294.3595     158.3683     248.1270
  311    3458.4009     292.1341     158.3537     245.4922
  312    3476.4700     289.9312     158.3441     242.8730
  313    3775.0979     287.7442     158.3273     240.2690
  314    3015.8860     285.5753     158.3077     237.6803
  315    3772.9961     283.4190     158.2855     235.1001
  316    3719.3760     281.2811     158.2612     232.5348
  317    3017.0979     279.1616     158.2348     229.9847
  318    3194.9060     277.0600     158.2057     227.4494
  319    3881.5039     274.9753     158.1721     224.9288
  320    3506.8230     272.9099     158.1385     222.4230
  321    2981.7329     270.8686     158.1038     219.9386
  322    3760.0229     268.8397     158.0667     217.4620
  323    2920.1809     266.8419     158.0315     215.0131
  324    3286.6201     264.8540     157.9899     212.5720
  325    3262.7839     262.8908     157.9488     210.1517
  326    3458.5029     260.9524     157.9087     207.7522
  327    2799.7041     259.0302     157.8643     205.3668
  328    2970.2380     257.1419     157.8273     203.0087
  329    3169.9910     255.2668     157.7813     200.6644
  330    2817.1499     253.4188     157.7409     198.3404
  331    2801.6340     251.5931     157.6980     196.0368
  332    2601.9319     249.7924     157.6576     193.7533
  333    2749.4480     248.0135     157.6145     191.4898
  334    2965.0850     246.2599     157.5746     189.2463
  335    2844.1160     244.5359     157.5369     187.0293
  336    2934.7900     242.8361     157.5008     184.8319
  337    2611.1370     241.1655     157.4669     182.6608
  338    2768.9399     239.5170     157.4321     180.5092
  339    2219.5920     237.8934     157.4006     178.3769
  340    3037.8311     236.3064     157.3758     176.2771
  341    2419.0190     234.7427     157.3524     174.1964
  342    2731.4910     233.2056     157.3285     172.1413
  343    2159.0439     231.7004     157.3121     170.1116
  344    2870.7041     230.2242     157.2994     168.1074
  345    2649.6479     228.7769     157.2903     166.1283
  346    2509.9209     227.3603     157.2879     164.1744
  347    2240.2190     225.9768     157.2889     162.2519
  348    2459.5520     224.6243     157.2977     160.3543
  349    2422.1841     223.2986     157.3083     158.4814
  350    2207.1880     222.0096     157.3285     156.6396
  351    2390.9500     220.7475     157.3515     154.8224
  352    2626.7720     219.5228     157.3857     153.0359
  353    2530.4741     218.3262     157.4249     151.2737
  354    2669.4690     217.1625     157.4698     149.5421
  355    2414.0681     216.0409     157.5273     147.8473
  356    2310.8979     214.9473     157.5907     146.1763
  357    2353.9609     213.8882     157.6630     144.5356
  358    2387.0701     212.8654     157.7472     142.9249
  359    1991.2980     211.8741     157.8369     141.3441
  360    2245.1650     210.9253     157.9418     139.7995
  361    2373.8110     210.0112     158.0573     138.2845
  362    2409.6709     209.1294     158.1807     136.7990
  363    2192.5630     208.2888     158.3188     135.3493
  364    2375.0510     207.4830     158.4685     133.9288
  365    1585.8160     206.7080     158.6254     132.5374
  366    1750.7860     205.9702     158.7981     131.1751
  367    2097.4460     205.2704     158.9825     129.8480
  368    2271.1841     204.6043     159.1789     128.5496
  369    2226.7891     203.9713     159.3866     127.2799
  370    1748.6130     203.3779     159.6096     126.0450
  371    2223.5320     202.8109     159.8410     124.8323
  372    2105.0540     202.2849     160.0901     123.6541
  373    2008.0630     201.7961     160.3524     122.5104
  374    1968.2340     201.3362     160.6272     121.3885
  375    2325.6731     200.9139     160.9166     120.3007
  376    2257.0630     200.5239     161.2187     119.2408
  377    1529.5740     200.1677     161.5359     118.2087
  378    2224.2390     199.8453     161.8682     117.2041
  379    2036.6140     199.5609     162.2171     116.2333
  380    1787.8730     199.3021     162.5761     115.2837
  381    1907.2490     199.0841     162.9556     114.3676
  382    1675.3860     198.8963     163.3473     113.4787
  383    1867.6801     198.7460     163.7560     112.6230
  384    1804.0410     198.6242     164.1798     111.7881
  385    1632.2450     198.5386     164.6196     110.9863
  386    1624.3030     198.4811     165.0745     110.2051
  387    2215.3621     198.4609     165.5474     109.4568
  388    1457.5389     198.4730     166.0368     108.7350
  389    1827.1000     198.5162     166.5417     108.0397
  390    1752.0081     198.5992     167.0684     107.3769
  391    1761.1130     198.7061     167.6064     106.7342
  392    1736.1150     198.8506     168.1645     106.1239
  393    1884.7830     199.0229     168.7388     105.5335
  394    1885.4620     199.2304     169.3309     104.9753
  395    1816.7740     199.4648     169.9387     104.4368
  396    1629.6730     199.7356     170.5661     103.9303
  397    1341.6121     200.0383     171.2120     103.4494
  398    1736.2970     200.3743     171.8780     102.9942
  399    1415.5601     200.7414     172.5619     102.5645
  400    1747.6080     201.1383     173.2625     102.1603
  401    1575.1810     201.5658     173.9807     101.7815
  402    1908.5229     202.0323     174.7232     101.4340
  403    1389.3730     202.5231     175.4801     101.1056
  404    1738.6990     203.0454     176.2565     100.8023
  405    1906.5430     203.5977     177.0507     100.5240
  406    2076.9241     204.1818     177.8651     100.2707
  407    2000.9700     204.8050     178.7048     100.0482
  408    1871.0070     205.4498     179.5569      99.8445
  409    1331.1910     206.1275     180.4310      99.6655
  410    1477.1730     206.8366     181.3255      99.5111
  411    1980.0520     207.5754     182.2387      99.3812
  412    1497.8790     208.3497     183.1740      99.2818
  413    1757.2150     209.1437     184.1236      99.1947
  414    1457.0129     209.9754     185.0982      99.1379
  415    1438.7729     210.8321     186.0900      99.0994
  416    1910.9771     211.7185     187.1013      99.0850
  417    1557.9139     212.6360     188.1337      99.0947
  418    1591.2140     213.5777     189.1829      99.1225
  419    1560.9550     214.5446     190.2500      99.1682
  420    1560.4460     215.5414     191.3373      99.2378
  421    1741.7120     216.5640     192.4434      99.3253
  422    1802.8220     217.6158     193.5692      99.4365
  423    1636.2800     218.6884     194.7114      99.5596
  424    2135.3689     219.7820     195.8672      99.7003
  425    1772.8610     220.9109     197.0500      99.8646
  426    1707.8210     222.0548     198.2428     100.0406
  427    1890.7880     223.2250     199.4556     100.2341
  428    1524.7371     224.4182     200.6846     100.4451
  429    2068.8911     225.6365     201.9324     100.6736
  430    1711.7130     226.8729     203.1939     100.9135
  431    1758.8719     228.1365     204.4767     101.1709
  432    2052.8879     229.4230     205.7759     101.4455
  433    1468.4510     230.7271     207.0887     101.7315
  434    2158.7539     232.0509     208.4172     102.0288
  435    1744.4550     233.3948     209.7621     102.3375
  436    1533.0580     234.7610     211.1232     102.6633
  437    1978.1840     236.1469     212.5001     103.0003
  438    1583.4410     237.5525     213.8931     103.3486
  439    1563.3960     238.9745     215.2986     103.7080
  440    1600.9750     240.4118     216.7180     104.0728
  441    1848.9700     241.8729     218.1553     104.4545
  442    2420.6699     243.3525     219.6076     104.8473
  443    1705.9170     244.8442     221.0704     105.2454
  444    1485.6121     246.3581     222.5521     105.6545
  445    1687.4200     247.8827     224.0429     106.0689
  446    2090.3711     249.4270     225.5500     106.4942
  447    1946.8831     250.9906     227.0730     106.9305
  448    1581.6320     252.5659     228.6062     107.3719
  449    1732.9139     254.1569     230.1540     107.8185
  450    1962.4900     255.7586     231.7111     108.2703
  451    1668.5930     257.3810     233.2855     108.7329
  452    2245.8201     259.0115     234.8690     109.1948
  453    1855.7540     260.6579     236.4647     109.6677
  454    1621.1660     262.3218     238.0771     110.1455
  455    2205.4939     263.9917     239.6961     110.6228
  456    2200.2429     265.6750     241.3273     111.1050
  457    1479.2430     267.3746     242.9739     111.5924
  458    2182.5991     269.0846     244.6294     112.0847
  459    2099.0181     270.8028     246.2940     112.5764
  460    2077.8450     272.5355     247.9718     113.0731
  461    1996.0649     274.2830     249.6635     113.5748
  462    2407.2771     276.0319     251.3595     114.0702
  463    2174.9990     277.7950     253.0685     114.5705
  464    2047.6890     279.5719     254.7901     115.0758
  465    2557.1531     281.3535     256.5195     115.5748
  466    2559.9370     283.1452     258.2575     116.0788
  467    1870.8719     284.9468     260.0063     116.5821
  468    1654.9010     286.7580     261.7658     117.0846
  469    1745.9800     288.5793     263.5364     117.5866
  470    2178.1489     290.4081     265.3152     118.0878
  471    2542.9341     292.2425     267.1001     118.5884
  472    2567.8550     294.0825     268.8937     119.0827
  473    2588.5449     295.9384     270.7022     119.5820
  474    1934.8521     297.7930     272.5118     120.0749
  475    1891.3420     299.6616     274.3367     120.5673
  476    2666.5681     301.5383     276.1703     121.0590
  477    1693.4490     303.4175     278.0092     121.5444
  478    2288.1050     305.3067     279.8590     122.0292
  479    2426.6931     307.1976     281.7130     122.5078
  480    2983.0291     309.0945     283.5760     122.9802
  481    2070.0830     310.9999     285.4480     123.4520
  482    1997.3890     312.9113     287.3288     123.9176
  483    2723.3999     314.8301     289.2178     124.3826
  484    2210.4771     316.7513     291.1116     124.8415
  485    1826.6150     318.6751     293.0130     125.2886
  486    2189.8501     320.6065     294.9223     125.7352
  487    2330.3081     322.5417     296.8381     126.1757
  488    1940.9659     324.4829     298.7625     126.6101
  489    2500.2781     326.4294     300.6949     127.0385
  490    2367.7529     328.3721     302.6275     127.4552
  491    2091.1450     330.3271     304.5733     127.8715
  492    2356.2080     332.2804     306.5216     128.2762
  493    2243.5139     334.2380     308.4766     128.6748
  494    2835.3359     336.1976     310.4381     129.0620
  495    2415.9761     338.1658     312.4086     129.4488
  496    1829.6370     340.1283     314.3794     129.8185
  497    1667.6040     342.0992     316.3612     130.1823
  498    2468.0339     344.0720     318.3469     130.5403
  499    2246.7981     346.0443     320.3362     130.8868
  500    2920.6470     348.0190     322.3322     131.2220
  501    2529.7339     339.8241     307.5487     144.5483
  502    2243.0090     341.5933     309.3518     144.8704
  503    2683.6699     343.3626     311.1601     145.1800
  504    2623.8779     345.1268     312.9680     145.4771
  505    2233.0559     346.8860     314.7752     145.7616
  506    2428.0640     348.6427     316.5876     146.0276
  507    2194.6050     350.4006     318.4032     146.2872
  508    2723.7009     352.1545     320.2195     146.5344
  509    2060.4309     353.9012     322.0351     146.7632
  510    3217.9829     355.6515     323.8568     146.9857
  511    2390.6470     357.3899     325.6754     147.1839
  512    3534.8450     359.1300     327.4977     147.3759
  513    2507.8040     360.8618     329.3180     147.5497
  514    2530.4719     362.6006     331.1477     147.7173
  515    1759.9080     364.3241     332.9704     147.8608
  516    2659.4871     366.0525     334.7999     147.9982
  517    2935.2471     367.7727     336.6273     148.1176
  518    1919.5540     369.4929     338.4589     148.2249
  519    2723.4619     371.2129     340.2942     148.3203
  520    2226.2141     372.9255     342.1280     148.3978
  521    2620.2500     374.6356     343.9629     148.4634
  522    1790.9890     376.3473     345.8033     148.5172
  523    2308.3899     378.0599     347.6485     148.5591
  524    2274.3779     379.7609     349.4873     148.5833
  525    2479.2451     381.4620     351.3297     148.5957
  526    2200.5410     383.1640     353.1766     148.5965
  527    1765.4470     384.8647     355.0256     148.5855
  528    3041.0149     386.5662     356.8788     148.5630
  529    2791.5830     388.2635     358.7332     148.5228
  530    2473.5239     389.9611     360.5911     148.4712
  531    2502.1521     391.6543     362.4475     148.4079
  532    2192.9829     393.3536     364.3136     148.3332
  533    2284.2590     395.0449     366.1763     148.2411
  534    2425.4451     396.7366     368.0423     148.1376
  535    3049.7771     398.4282     369.9112     148.0226
  536    2473.7649     400.1193     371.7824     147.8963
  537    1999.4871     401.8161     373.6624     147.7587
  538    2515.1421     403.5044     375.5381     147.6039
  539    2226.2009     405.2001     377.4222     147.4437
  540    2921.1670     406.8956     379.3107     147.2664
  541    2811.9351     408.5875     381.1979     147.0778
  542    1621.1021     410.2831     383.0915     146.8782
  543    2124.6880     411.9713     384.9815     146.6615
  544    2924.0391     413.6684     386.8812     146.4395
  545    2373.9089     415.3596     388.7788     146.2007
  546    2408.0659     417.0570     390.6852     145.9508
  547    2188.0930     418.7625     392.6002     145.6956
  548    2582.4121     420.4637     394.5145     145.4237
  549    3013.5359     422.1577     396.4253     145.1350
  550    1633.1021     423.8656     398.3504     144.8412
  551    3004.4980     425.5682     400.2718     144.5365
  552    2597.1750     427.2762     402.2026     144.2152
  553    1974.7340     428.9806     404.1313     143.8830
  554    2571.2930     430.6970     406.0721     143.5457
  555    2851.5569     432.4119     408.0148     143.1920
  556    2644.4780     434.1289     409.9613     142.8274
  557    2181.3960     435.8448     411.9078     142.4522
  558    2617.9580     437.5674     413.8628     142.0662
  559    2324.6790     439.2832     415.8137     141.6639
  560    2121.6360     441.0241     417.7904     141.2566
  561    1981.0570     442.7574     419.7601     140.8387
  562    2637.7471     444.4858     421.7276     140.4046
  563    2168.3779     446.2240     423.7045     139.9655
  564    3385.1641     447.9618     425.6838     139.5103
  565    2422.8069     449.7194     427.6828     139.0502
  566    2704.4480     451.4669     429.6720     138.5797
  567    1435.2150     453.2198     431.6676     138.0987
  568    1970.4500     454.9968     433.6873     137.6130
  569    1636.4750     456.7774     435.7133     137.1112
  570    1823.7170     458.5494     437.7290     136.6047
  571    2747.1609     460.3341     439.7568     136.0935
  572    1962.4449     462.1307     441.7976     135.5720
  573    2777.9031     463.9257     443.8369     135.0401
  574    1964.6650     465.7358     445.8908     134.5036
  575    1899.7810     467.5551     447.9547     133.9568
  576    2472.1689     469.3830     450.0260     133.4055
  577    2766.4651     471.2169     452.1022     132.8495
  578    3086.2949     473.0746     454.2017     132.2890
  579    2075.1521     474.9325     456.3016     131.7182
  580    1880.1870     476.7989     458.4088     131.1430
  581    3285.4800     478.6753     460.5250     130.5631
  582    2164.5420     480.5709     462.6596     129.9788
  583    2369.0720     482.4764     464.8029     129.3899
  584    2577.0920     484.3803     466.9445     128.7909
  585    2214.0991     486.3130     469.1129     128.1930
  586    2804.6699     488.2468     471.2808     127.5906
  587    2536.2881     490.2126     473.4801     126.9838
  588    1713.4650     492.1938     475.6925     126.3780
  589    2583.9570     494.1641     477.8932     125.7623
  590    1668.6610     496.1779     480.1361     125.1476
  591    1880.2629     498.1863     482.3715     124.5285
  592    2013.1650     500.2231     484.6332     123.9105
  593    1424.3979     502.2488     486.8832     123.2826
  594    2493.6680     504.3100     489.1653     122.6613
  595    1950.8220     506.3921     491.4674     122.0356
  596    2053.8010     508.4890     493.7832     121.4055
  597    2966.2781     510.5951     496.1053     120.7765
  598    1877.3920     512.7290     498.4530     120.1487
  599    1747.9600     514.8776     500.8128     119.5220
  600    2404.0540     517.0281     503.1729     118.8909
  601    1723.7090     519.2133     505.5658     118.2609
  602    1512.7120     521.4260     507.9840     117.6320
  603    1963.0020     523.6459     510.4068     117.0043
  604    2475.7161     525.8988     512.8616     116.3722
  605    2166.4480     528.1564     515.3173     115.7467
  606    2158.8711     530.4319     517.7883     115.1223
  607    2073.4580     532.7586     520.3093     114.4990
  608    3061.7930     535.0789     522.8207     113.8769
  609    1384.8409     537.4259     525.3568     113.2558
  610    1794.7640     539.7964     527.9141     112.6358
  611    1985.7620     542.1895     530.4908     112.0224
  612    1995.6479     544.6094     533.0922     111.4101
  613    1610.1580     547.0463     535.7081     110.7989
  614    2497.6780     549.5299     538.3682     110.1941
  615    1722.4960     552.0156     541.0279     109.5905
  616    1103.3970     554.5297     543.7128     108.9934
  617    3394.7800     557.0638     546.4156     108.3973
  618    1407.1930     559.6207     549.1393     107.8022
  619    1681.1130     562.2092     551.8917     107.2136
  620    2066.2930     564.8373     554.6810     106.6315
  621    1468.4720     567.4671     557.4695     106.0504
  622    1836.1169     570.1248     560.2831     105.4757
  623    1192.4091     572.8314     563.1432     104.9075
  624     675.4743     575.5593     566.0217     104.3457
  625    1713.9260     578.2985     568.9093     103.7848
  626    1893.2860     581.0728     571.8296     103.2303
  627    2189.2061     583.8813     574.7814     102.6822
  628    1569.3090     586.7173     577.7582     102.1405
  629    1128.6460     589.5684     580.7482     101.5996
  630    2023.2371     592.4694     583.7849     101.0705
  631    1356.4449     595.4044     586.8531     100.5477
  632    1189.8420     598.3472     589.9273     100.0258
  633    2337.3330     601.3083     593.0163      99.5155
  634    2178.8740     604.3200     596.1539      99.0115
  635    2083.4529     607.3759     599.3335      98.5138
  636    1420.4860     610.4515     602.5302      98.0223
  637    1885.2350     613.5482     605.7449      97.5423
  638    2229.5410     616.6792     608.9926      97.0632
  639     825.5447     619.8421     612.2692      96.5956
  640    1690.4170     623.0547     615.5935      96.1341
  641    2156.5720     626.2916     618.9391      95.6841
  642     759.6483     629.5503     622.3044      95.2403
  643    1473.0790     632.8455     625.7042      94.8025
  644    1911.5950     636.1849     629.1457      94.3762
  645    1394.3330     639.5510     632.6110      93.9613
  646    1821.8690     642.9405     636.0986      93.5471
  647    2678.5181     646.3860     639.6390      93.1495
  648    2019.0850     649.8527     643.1986      92.7580
  649     809.8237     653.3697     646.8063      92.3778
  650    1330.4080     656.9020     650.4272      92.0035
  651    2449.4910     660.4899     654.1015      91.6405
  652    2617.8850     664.0975     657.7932      91.2887
  653    3263.1841     667.7579     661.5354      90.9481
  654    1181.3521     671.4354     665.2929      90.6135
  655    1894.0240     675.1653     669.1009      90.2899
  656    1401.0480     678.9367     672.9473      89.9828
  657    1714.9380     682.7271     676.8112      89.6815
  658     593.1044     686.5828     680.7386      89.3913
  659    1769.5640     690.4580     684.6833      89.1122
  660    2790.1899     694.3873     688.6802      88.8441
  661    2663.2981     698.3486     692.7071      88.5870
  662    1203.4130     702.3396     696.7609      88.3462
  663     255.5159     706.3755     700.8586      88.1110
  664    2386.4709     710.4706     705.0131      87.8920
  665    2537.2261     714.5809     709.1814      87.6787
  666     881.3329     718.7254     713.3821      87.4762
  667    2889.9089     722.9412     717.6521      87.2899
  668    2729.2600     727.1707     721.9343      87.1091
  669     920.3500     731.4565     726.2708      86.9444
  670    1086.0740     735.7714     730.6353      86.7852
  671    2052.4529     740.1379     735.0499      86.6368
  672    1026.6440     744.5503     739.5081      86.5044
  673    1323.6720     748.9852     743.9877      86.3774
  674     460.9137     753.4650     748.5109      86.2611
  675    2525.7261     758.0003     753.0882      86.1554
  676    2448.8149     762.5571     757.6852      86.0604
  677     747.4667     767.1668     762.3339      85.9761
  678    2366.4680     771.8082     767.0128      85.9023
  679    1265.3380     776.4791     771.7203      85.8338
  680    1407.7500     781.2206     776.4967      85.7811
  681    1966.8030     785.9872     781.2974      85.7338
  682    1760.5540     790.8209     786.1639      85.6969
  683    2366.0229     795.6746     791.0490      85.6705
  684    3522.4600     800.5769     795.9816      85.6546
  685     949.7343     805.5239     800.9581      85.6439
  686    1775.4860     810.4761     805.9378      85.6488
  687    1112.5850     815.5032     810.9920      85.6590
  688    1637.2209     820.5860     816.1013      85.6743
  689    1286.4260     825.6974     821.2375      85.7052
  690    1566.5850     830.8350     826.3990      85.7412
  691    1102.3521     836.0451     831.6321      85.7875
  692     654.5927     841.2904     836.8992      85.8442
  693    2100.6201     846.5728     842.2023      85.9111
  694    2511.3169     851.8887     847.5383      85.9831
  695    1935.2690     857.2617     852.9305      86.0653
  696     -54.9823     862.6552     858.3425      86.1526
  697      64.5835     868.1437     863.8486      86.2501
  698    1062.1750     873.6340     869.3553      86.3577
  699     130.5470     879.1492     874.8864      86.4704
  700    1849.1650     884.7405     880.4927      86.5932
  701    1717.0031     890.3796     886.1459      86.7261
  702    3294.7629     896.0629     891.8427      86.8640
  703    2044.5040     901.7728     897.5649      87.0120
  704    1043.8051     907.5272     903.3311      87.1701
  705    2556.4871     913.3362     909.1517      87.3279
  706    2043.7200     919.1910     915.0167      87.5009
  707    1894.4000     925.0891     920.9246      87.6788
  708    3331.5471     931.0449     926.8895      87.8667
  709    1350.8010     937.0417     932.8949      88.0594
  710    1518.6760     943.0638     938.9249      88.2571
  711     625.3708     949.1443     945.0128      88.4646
  712    3558.0349     955.2703     951.1450      88.6821
  713    2407.8831     961.4373     957.3181      88.9044
  714    1705.5790     967.6547     963.5409      89.1315
  715     -31.0835     973.9160     969.8069      89.3685
  716     770.6642     980.2242     976.1201      89.6051
  717    2108.2061     986.5992     982.4987      89.8568
  718     395.2046     992.9763     988.8794      90.1080
  719    3378.0039     999.4255     995.3315      90.3691
  720     467.6132    1005.9214    1001.8304      90.6299
  721    2030.4561    1012.4445    1008.3557      90.9005
  722     854.9184    1019.0081    1014.9210      91.1758
  723    2567.4221    1025.6362    1021.5506      91.4558
  724    2444.6931    1032.2991    1028.2150      91.7354
  725    2173.5681    1039.0555    1034.9723      92.0248
  726    2558.6121    1045.7960    1041.7133      92.3188
  727    1933.7970    1052.6093    1048.5271      92.6125
  728    1979.2240    1059.4469    1055.3645      92.9159
  729    3261.6211    1066.3483    1062.2659      93.2190
  730    2545.6899    1073.2986    1069.2159      93.5266
  731    1889.2939    1080.2805    1076.1976      93.8339
  732    2932.8369    1087.3076    1083.2241      94.1459
  733    3221.0869    1094.3862    1090.3019      94.4624
  734    2610.4800    1101.5297    1097.4441      94.7836
  735    -114.7035    1108.7041    1104.6176      95.1044
  736    2197.0930    1115.9207    1111.8331      95.4248
  737    2329.8560    1123.1680    1119.0792      95.7498
  738    1610.6190    1130.4824    1126.3921      96.0794
  739    1530.1990    1137.8328    1133.7416      96.4035
  740    3232.0901    1145.2317    1141.1392      96.7324
  741    1493.2360    1152.6759    1148.5818      97.0657
  742    2329.8701    1160.2018    1156.1066      97.3937
  743    1329.5880    1167.7444    1163.6478      97.7263
  744     462.6180    1175.2898    1171.1920      98.0585
  745    1745.4130    1182.9314    1178.8320      98.3952
  746    1397.6570    1190.6021    1186.5018      98.7266
  747    4269.2139    1198.3306    1194.2289      99.0625
  748    1860.0070    1206.0769    1201.9745      99.3930
  749    1021.1280    1213.9359    1209.8331      99.7232
  750    1418.1270    1221.7845    1217.6805     100.0579
  751    1820.6040    1229.6925    1225.5880     100.3873
  752    2538.8101    1237.6592    1233.5546     100.7163
  753    3038.1790    1245.6357    1241.5308     101.0449
  754     657.6501    1253.6611    1249.5558     101.3731
  755    2135.9099    1261.7706    1257.6654     101.7009
  756    1099.1730    1269.8960    1265.7911     102.0234
  757    3197.1599    1278.0891    1273.9847     102.3455
  758    -171.5754    1286.3188    1282.2151     102.6672
  759    2391.0000    1294.6121    1290.5094     102.9836
  760    2974.0569    1302.9344    1298.8330     103.2996
  761    2004.9690    1311.2930    1307.1932     103.6104
  762    2208.7510    1319.7041    1315.6061     103.9208
  763    3281.5190    1328.1707    1324.0748     104.2259
  764    1023.1030    1336.6986    1332.6052     104.5307
  765    1459.8330    1345.2450    1341.1543     104.8302
  766    2776.1130    1353.8491    1349.7615     105.1245
  767    2048.2600    1362.5026    1358.4183     105.4184
  768    4060.2261    1371.1948    1367.1143     105.7071
  769    3124.8721    1379.9332    1375.8568     105.9905
  770    1397.6930    1388.7292    1384.6571     106.2737
  771    2111.3311    1397.5457    1393.4780     106.5516
  772    1801.3860    1406.4235    1402.3608     106.8244
  773    2631.3120    1415.3784    1411.3212     107.0919
  774    4216.4209    1424.3542    1420.3029     107.3543
  775    1452.6030    1433.4045    1429.3595     107.6115
  776     430.0493    1442.4696    1438.4307     107.8684
  777    1691.6770    1451.5663    1447.5343     108.1153
  778    3331.5071    1460.7649    1456.7404     108.3571
  779     655.2389    1469.9851    1465.9683     108.5986
  780    4104.1450    1479.2643    1475.2555     108.8301
  781    3732.7180    1488.5688    1484.5685     109.0565
  782     218.6816    1497.9010    1493.9094     109.2779
  783    1006.7370    1507.3112    1503.3289     109.4941
  784    -178.0525    1516.7833    1512.8109     109.7053
  785    3219.1770    1526.2792    1522.3164     109.9114
  786    3047.5259    1535.8665    1531.9144     110.1076
  787    2213.4871    1545.4692    1541.5283     110.2988
  788    2885.9270    1555.1254    1551.1960     110.4800
  789     540.0690    1564.8097    1560.8918     110.6612
  790    3341.0510    1574.5983    1570.6929     110.8325
  791    1487.0750    1584.4061    1580.5135     110.9939
  792    3599.5901    1594.2277    1590.3483     111.1504
  793    -854.3173    1604.1207    1600.2549     111.3019
  794    1867.8060    1614.0653    1610.2133     111.4436
  795    3517.6011    1624.1002    1620.2627     111.5804
  796    1410.6980    1634.1307    1630.3082     111.7075
  797    1130.5470    1644.2136    1640.4066     111.8248
  798    3704.6479    1654.3547    1650.5636     111.9372
  799    -289.5041    1664.5341    1660.7590     112.0400
  800    1615.5450    1674.8036    1671.0457     112.1330
  801   -2014.0460    1685.0779    1681.3369     112.2212
  802     888.6852    1695.4258    1691.7025     112.2998
  803    4654.3618    1705.8262    1702.1210     112.3687
  804    2904.8970    1716.2839    1712.5972     112.4327
  805    3567.4880    1726.7649    1723.0974     112.4825
  806   -1461.3710    1737.3090    1733.6609     112.5274
  807    3621.0569    1747.9010    1744.2728     112.5627
  808    2916.5750    1758.5369    1754.9290     112.5885
  809    3176.4590    1769.2086    1765.6216     112.6048
  810    3631.6499    1779.9875    1776.4220     112.6068
  811     208.8345    1790.7673    1787.2234     112.6041
  812    1677.4200    1801.5876    1798.0659     112.5919
  813     497.6935    1812.4967    1808.9977     112.5702
  814     532.2341    1823.4884    1820.0122     112.5391
  815    2213.5349    1834.4331    1830.9803     112.4986
  816    -392.4968    1845.4933    1842.0641     112.4487
  817    1533.1970    1856.6488    1853.2445     112.3847
  818    3345.8210    1867.7400    1864.3600     112.3160
  819     555.5724    1879.0074    1875.6523     112.2380
  820    4125.2148    1890.2416    1886.9116     112.1506
  821    5945.2202    1901.5165    1898.2120     112.0539
  822    4046.0120    1912.8943    1909.6158     111.9479
  823    2813.2830    1924.3490    1921.0963     111.8374
  824    2602.6040    1935.8003    1932.5741     111.7128
  825    -778.6130    1947.2983    1944.0990     111.5790
  826    2051.1279    1958.8899    1955.7175     111.4407
  827    1939.6760    1970.5116    1967.3667     111.2885
  828    3746.7881    1982.2389    1979.1210     111.1317
  829    3034.4199    1993.9902    1990.9003     110.9658
  830      28.5511    2005.8351    2002.7736     110.7859
  831    1397.8621    2017.6411    2014.6074     110.6017
  832    2228.3870    2029.5869    2026.5815     110.4082
  833    2934.0520    2041.5477    2038.5709     110.2104
  834    1505.0790    2053.5513    2050.6033     109.9987
  835    1721.3750    2065.6714    2062.7520     109.7827
  836    7878.2310    2077.7527    2074.8625     109.5528
  837    3994.1570    2089.9382    2087.0771     109.3186
  838    1565.8409    2102.2651    2099.4336     109.0754
  839       1.9657    2114.5911    2111.7888     108.8277
  840    2458.3450    2126.9478    2124.1753     108.5664
  841     371.5883    2139.3582    2136.6150     108.3008
  842    2221.8870    2151.8118    2149.0984     108.0261
  843   -1077.7740    2164.4094    2161.7261     107.7425
  844    5741.4570    2176.9739    2174.3206     107.4499
  845    2805.5171    2189.6702    2187.0469     107.1530
  846    2965.6660    2202.4209    2199.8276     106.8472
  847    2503.8640    2215.1799    2212.6167     106.5324
  848    3058.6990    2228.0786    2225.5457     106.2088
  849    1304.0920    2240.9231    2238.4207     105.8809
  850    1224.3070    2253.8926    2251.4202     105.5441
  851    7285.0361    2266.9363    2264.4941     105.1985
  852      56.4562    2280.0046    2277.5928     104.8440
  853    1810.6390    2293.1831    2290.8015     104.4853
  854    2725.0000    2306.3579    2304.0066     104.1178
  855    -402.3113    2319.6934    2317.3723     103.7415
  856    2650.2500    2333.0000    2330.7095     103.3610
  857     240.3808    2346.4644    2344.2041     102.9718
  858    1809.4270    2359.9348    2357.7043     102.5737
  859    6881.0449    2373.4526    2371.2524     102.1716
  860    5747.2651    2386.9788    2384.8086     101.7606
  861    2385.9790    2400.7070    2398.5671     101.3456
  862   -1607.4730    2414.3633    2412.2532     100.9172
  863    4807.6660    2428.2144    2426.1340     100.4894
  864   -1005.9840    2442.0166    2439.9663     100.0482
  865    6031.5620    2455.9199    2453.8994      99.6030
  866    -126.1471    2469.8638    2467.8728      99.1537
  867    4389.1812    2483.9924    2482.0308      98.6957
  868    1564.0220    2498.1128    2496.1807      98.2337
  869    2071.3899    2512.2983    2510.3950      97.7677
  870   -2412.8020    2526.5190    2524.6450      97.2930
  871    7136.3340    2540.9111    2539.0662      96.8143
  872    1205.3990    2555.3550    2553.5383      96.3316
  873    2762.2380    2569.7258    2567.9380      95.8403
  874    4675.7412    2584.2490    2582.4900      95.3451
  875    6548.8809    2598.8154    2597.0842      94.8458
  876    -775.2866    2613.5305    2611.8271      94.3425
  877    -939.5746    2628.3315    2626.6558      93.8353
  878   -3441.1460    2643.1233    2641.4753      93.3241
  879   -1103.2820    2657.9751    2656.3542      92.8089
  880    8219.6689    2673.0247    2671.4312      92.2852
  881    4199.1289    2687.9780    2686.4114      91.7621
  882   -2036.0060    2703.0994    2701.5593      91.2351
  883    -616.0822    2718.2854    2716.7717      90.7041
  884    5013.5078    2733.5349    2732.0474      90.1693
  885    1731.6100    2748.9016    2747.4397      89.6350
  886    1044.7310    2764.1907    2762.7544      89.0922
  887    5031.9590    2779.7522    2778.3416      88.5501
  888    4816.0679    2795.3232    2793.9373      88.0041
  889     960.2390    2810.9226    2809.5615      87.4542
  890     626.7594    2826.6887    2825.3523      86.9049
  891    3282.4580    2842.3811    2841.0691      86.3518
  892    4701.0498    2858.3679    2857.0798      85.7992
  893    3668.0020    2874.2788    2873.0146      85.2428
  894    1717.9189    2890.2480    2889.0071      84.6870
  895    1451.6810    2906.3745    2905.1567      84.1274
  896   -1559.8690    2922.6519    2921.4573      83.5638
  897   10653.4199    2938.8694    2937.6970      83.0055
  898     597.8599    2955.2888    2954.1384      82.4432
  899   -1006.1220    2971.7307    2970.6025      81.8771
  900    -418.1624    2988.1782    2987.0718      81.3117
  901    5878.1182    3004.8274    3003.7424      80.7469
  902    -391.2891    3021.4380    3020.3738      80.1827
  903    9427.2686    3038.2708    3037.2273      79.6192
  904    6262.2051    3055.1509    3054.1279      79.0518
  905    2759.9619    3072.0820    3071.0793      78.4851
  906    2945.6211    3089.1328    3088.1501      77.9190
  907     268.0954    3106.2117    3105.2485      77.3581
  908    1758.3920    3123.4666    3122.5225      76.7934
  909    1394.5909    3140.7065    3139.7815      76.2292
  910     810.9624    3158.1362    3157.2300      75.6657
  911     562.9357    3175.5479    3174.6594      75.1029
  912   -2764.5879    3193.0710    3192.2004      74.5452
  913     788.8016    3210.7651    3209.9124      73.9836
  914    6123.7119    3228.5691    3227.7341      73.4272
  915    4741.3691    3246.3582    3245.5408      72.8669
  916    -671.1493    3264.4099    3263.6091      72.3117
  917    5423.5718    3282.3457    3281.5610      71.7616
  918    -308.8323    3300.4749    3299.7068      71.2076
  919   -1449.6021    3318.6907    3317.9385      70.6588
  920    7555.5908    3336.9436    3336.2068      70.1106
  921    2988.5271    3355.4236    3354.7026      69.5675
  922    1447.6479    3373.8921    3373.1858      69.0205
  923   -1054.9570    3392.5125    3391.8213      68.4830
  924    5725.9038    3411.1714    3410.4949      67.9417
  925    2858.4380    3429.9658    3429.3035      67.4054
  926   -3896.0759    3448.8340    3448.1853      66.8743
  927    4359.8110    3467.9065    3467.2715      66.3437
  928    4118.7861    3486.9304    3486.3093      65.8137
  929    4443.1802    3506.0977    3505.4895      65.2931
  930    -845.6878    3525.4890    3524.8938      64.7688
  931    -331.5898    3544.8210    3544.2388      64.2538
  932   -4342.7998    3564.4084    3563.8389      63.7351
  933    2882.9929    3584.0835    3583.5259      63.2257
  934    4228.7529    3603.6973    3603.1516      62.7170
  935    3038.5591    3623.5513    3623.0171      62.2132
  936    1987.7330    3643.4780    3642.9553      61.7144
  937    9116.7529    3663.4800    3662.9685      61.2162
  938    2802.8000    3683.5886    3683.0879      60.7229
  939    1677.2670    3703.8606    3703.3706      60.2347
  940   -1628.3490    3724.2336    3723.7544      59.7514
  941    3218.6870    3744.7766    3744.3074      59.2730
  942    6310.7461    3765.2385    3764.7798      58.7996
  943    2616.0259    3785.9797    3785.5303      58.3267
  944    1048.3320    3806.8267    3806.3867      57.8631
  945    -353.3333    3827.7075    3827.2773      57.4001
  946    6699.2710    3848.7202    3848.2991      56.9419
  947    6116.8789    3869.9253    3869.5127      56.4931
  948    1252.6860    3891.1003    3890.6965      56.0448
  949    1216.0970    3912.5588    3912.1636      55.6057
  950      98.6116    3934.0198    3933.6328      55.1672
  951    1557.6410    3955.6099    3955.2312      54.7379
  952   -3348.5530    3977.4417    3977.0710      54.3135
  953    1174.1910    3999.0627    3998.7000      53.8939
  954     735.2837    4021.3577    4021.0017      53.4792
  955    2830.1841    4043.2854    4042.9370      53.0737
  956    9222.1553    4065.5466    4065.2056      52.6687
  957    2017.9590    4087.8931    4087.5588      52.2728
  958    1038.3160    4110.5034    4110.1763      51.8862
  959    -951.2177    4132.8931    4132.5718      51.4999
  960   -1632.7460    4155.5967    4155.2817      51.1229
  961   -3070.3330    4178.5884    4178.2803      50.7506
  962     977.2717    4201.3643    4201.0620      50.3874
  963    1860.8010    4224.4722    4224.1763      50.0291
  964   -3568.0010    4247.9233    4247.6328      49.6798
  965    3785.1169    4271.0435    4270.7583      49.3353
  966    8620.9219    4294.9438    4294.6646      48.9956
  967   11672.9199    4318.4658    4318.1914      48.6605
  968    2015.2720    4342.3008    4342.0312      48.3345
  969   -2404.3091    4366.2480    4365.9834      48.0176
  970    4148.0918    4390.1997    4389.9409      47.7054
  971    7940.8330    4414.4878    4414.2339      47.3979
  972    2098.3230    4438.7588    4438.5088      47.0951
  973    7052.3672    4463.0933    4462.8472      46.8013
  974    4091.4009    4487.7769    4487.5356      46.5121
  975   11457.4297    4512.4668    4512.2300      46.2319
  976    8938.3242    4537.5151    4537.2822      45.9564
  977    1648.0260    4562.2617    4562.0322      45.6855
  978    2626.5911    4587.3999    4587.1748      45.4236
  979   -5547.0869    4612.8345    4612.6133      45.1663
  980   -6240.4771    4638.2656    4638.0488      44.9179
  981    2502.3479    4663.7852    4663.5718      44.6742
  982    4928.0532    4689.6953    4689.4854      44.4350
  983    6662.8032    4715.5811    4715.3735      44.2047
  984     555.3090    4741.4448    4741.2412      43.9790
  985    1868.3669    4768.0103    4767.8101      43.7579
  986    1521.4590    4794.3555    4794.1577      43.5456
  987    2978.9780    4820.6021    4820.4072      43.3379
  988    -790.7886    4847.2310    4847.0396      43.1369
  989    2219.6870    4874.2290    4874.0396      42.9421
  990     -13.6947    4901.2754    4901.0889      42.7536
  991    1760.1720    4928.3662    4928.1826      42.5713
  992   13966.7500    4955.5020    4955.3203      42.3948
  993   -2044.0220    4982.8584    4982.6792      42.2245
  994    5308.2671    5010.6982    5010.5215      42.0608
  995   -2376.6399    5038.4736    5038.2993      41.9025
  996    -250.2320    5066.3062    5066.1338      41.7508
  997    1490.5610    5094.1733    5094.0034      41.6049
  998   -3248.3821    5122.7593    5122.5913      41.4655
  999     566.7262    5150.9067    5150.7407      41.3319
 1000     673.6542    5179.5864    5179.4224      41.2040
